day sst(K) H(W/m2) LE(W/m2) TAU(m2/s2)
 205.500   293.65      4.43     22.73      0.00
 205.542   295.63     43.55     88.67      0.00
 205.583   298.40    104.08    154.39      0.00
 205.625   301.36    156.94    219.15      0.00
 205.667   304.05    194.16    277.88      0.00
 205.708   306.19    208.90    315.27      0.00
 205.750   307.68    216.14    321.28      0.00
 205.792   308.51    196.41    329.10      0.00
 205.833   308.67    176.30    302.76      0.00
 205.875   308.21    135.11    268.53      0.00
 205.917   307.17     88.10    221.72      0.00
 205.958   305.62     34.59    158.67      0.00
 206.000   303.64      0.01     74.02      0.00
 206.042   301.43      0.01     23.20      0.00
 206.083   299.35      0.01      8.89      0.00
 206.125   297.70      0.01      5.24      0.00
 206.167   296.55      0.01      3.70      0.00
 206.208   295.71      0.01      2.61      0.00
 206.250   294.20      0.01      0.68      0.00

